5	0	0.0	0.0	0.0	3
1	1	-57.00	-57.00	 1483.9	 1068.7	  32.44	    26.49
2	2	-54.00	-54.00	 1415.6	 1022.3	  32.30	    20.19
3	3	-51.00	-51.00	 1515.1	 1106.0	  34.72	    -1.38
4	4	-48.00	-48.00	 1454.6	 1067.5	  39.04	     9.06
5	5	-45.00	-45.00	 1494.6	 1165.3	  43.11	     2.77
6	6	-42.00	-42.00	 1472.4	 1227.7	  46.40	     4.71
7	7	-39.00	-39.00	 1472.6	 1291.3	  49.13	     1.88
8	8	-36.00	-36.00	 1445.2	 1301.9	  52.49	     3.10
9	9	-33.00	-33.00	 1450.6	 1327.3	  51.39	     3.96
10	10	-30.00	-30.00	 1497.7	 1375.7	  51.10	    -2.96
11	11	-27.00	-27.00	 1516.2	 1408.7	  48.30	    -7.00
12	12	-24.00	-24.00	 1489.0	 1401.1	  49.51	    -3.89
13	13	-21.00	-21.00	 1496.9	 1430.5	  49.56	    -5.16
14	14	-18.00	-18.00	 1500.2	 1445.9	  48.30	    -7.52
15	15	-15.00	-15.00	 1480.1	 1431.7	  49.24	    -3.00
16	16	-12.00	-12.00	 1467.2	 1414.0	  50.65	    -0.08
17	17	-9.00	-9.00	 1475.1	 1425.6	  50.50	    -0.31
18	18	-6.00	-6.00	 1464.1	 1416.8	  50.15	     0.68
19	19	-3.00	-3.00	 1450.0	 1415.2	  50.28	     4.83
20	20	 0.00	 0.00	 1463.7	 1432.3	  50.69	     0.93
21	21	 3.00	 3.00	 1473.0	 1450.0	  44.28	    -1.68
22	22	 6.00	 6.00	 1461.6	 1435.2	  46.78	    -0.80
23	23	 9.00	 9.00	 1466.2	 1441.7	  47.45	    -0.77
24	24	12.00	12.00	 1456.1	 1427.4	  52.29	     2.14
25	25	15.00	15.00	 1486.3	 1459.1	  42.54	    -6.71
26	26	18.00	18.00	 1484.5	 1450.5	  45.78	    -3.35
27	27	21.00	21.00	 1457.5	 1427.9	  48.08	     3.14
28	28	24.00	24.00	 1464.5	 1435.3	  52.93	     1.47
29	29	27.00	27.00	 1468.2	 1449.0	  35.36	    -0.60
30	30	30.00	30.00	 1439.5	 1418.1	  44.27	     6.03
31	31	33.00	33.00	 1492.1	 1466.6	  39.97	    -2.97
32	32	36.00	36.00	 1476.5	 1449.4	  49.98	    -2.55
33	33	39.00	39.00	 1467.7	 1451.8	  28.45	    -4.75
34	34	42.00	42.00	 1471.3	 1458.0	  29.37	    -3.91
35	35	45.00	45.00	 1471.8	 1454.4	  61.80	    -3.23
36	36	48.00	48.00	 1474.6	 1444.8	  66.27	    -3.56
37	37	51.00	51.00	 1452.0	 1419.3	  68.15	     3.43
38	38	54.00	54.00	 1457.1	 1421.5	  58.83	     4.57
39	39	57.00	57.00	 1496.6	 1454.6	  51.15	    -7.08
40	40	60.00	60.00	 1485.3	 1444.8	  51.87	    -5.69
