1	1	-57.00	-57.00	  1360   2
2	2	-54.00	-54.00	  1243
3	3	-51.00	-51.00	  1273
4	4	-48.00	-48.00	  1286
5	5	-45.00	-45.00	  1339
6	6	-42.00	-42.00	  1374
7	7	-39.00	-39.00	  1378
8	8	-36.00	-36.00	  1386
9	9	-33.00	-33.00	  1405
10	10	-30.00	-30.00	  1423
11	11	-27.00	-27.00	  1431
12	12	-24.00	-24.00	  1429
13	13	-21.00	-21.00	  1440
14	14	-18.00	-18.00	  1442
15	15	-15.00	-15.00	  1444
16	16	-12.00	-12.00	  1440
17	17	-9.00	-9.00	  1449
18	18	-6.00	-6.00	  1443
19	19	-3.00	-3.00	  1452
20	20	 0.00	 0.00	  1452
21	21	 3.00	 3.00	  1455
22	22	 6.00	 6.00	  1445
23	23	 9.00	 9.00	  1451
24	24	12.00	12.00	  1451
25	25	15.00	15.00	  1443
26	26	18.00	18.00	  1454
27	27	21.00	21.00	  1456
28	28	24.00	24.00	  1456
29	29	27.00	27.00	  1456
30	30	30.00	30.00	  1457
31	31	33.00	33.00	  1467
32	32	36.00	36.00	  1452
33	33	39.00	39.00	  1440
34	34	42.00	42.00	  1449
35	35	45.00	45.00	  1449
36	36	48.00	48.00	  1444
37	37	51.00	51.00	  1449
38	38	54.00	54.00	  1459
39	39	57.00	57.00	  1446
40	40	60.00	60.00	  1439
