4	0	0.0	0.0	0.0	3
1	1	-57.00	-57.00	 1323.6	    10.19
2	2	-54.00	-54.00	  987.0	    45.94
3	3	-51.00	-51.00	 1093.4	    30.98
4	4	-48.00	-48.00	 1117.4	    28.92
5	5	-45.00	-45.00	 1264.4	    12.60
6	6	-42.00	-42.00	 1352.1	     4.56
7	7	-39.00	-39.00	 1349.2	     6.40
8	8	-36.00	-36.00	 1380.8	     1.21
9	9	-33.00	-33.00	 1388.9	     3.99
10	10	-30.00	-30.00	 1435.7	    -2.53
11	11	-27.00	-27.00	 1462.5	    -7.01
12	12	-24.00	-24.00	 1444.7	    -3.82
13	13	-21.00	-21.00	 1463.7	    -5.16
14	14	-18.00	-18.00	 1472.8	    -7.44
15	15	-15.00	-15.00	 1455.9	    -3.01
16	16	-12.00	-12.00	 1440.8	    -0.11
17	17	-9.00	-9.00	 1450.2	    -0.26
18	18	-6.00	-6.00	 1440.6	     0.65
19	19	-3.00	-3.00	 1432.7	     4.82
20	20	 0.00	 0.00	 1448.1	     0.92
21	21	 3.00	 3.00	 1461.7	    -1.71
22	22	 6.00	 6.00	 1448.4	    -0.80
23	23	 9.00	 9.00	 1454.0	    -0.76
24	24	12.00	12.00	 1441.9	     2.09
25	25	15.00	15.00	 1472.8	    -6.73
26	26	18.00	18.00	 1467.7	    -3.38
27	27	21.00	21.00	 1442.8	     3.12
28	28	24.00	24.00	 1450.2	     1.39
29	29	27.00	27.00	 1458.5	    -0.60
30	30	30.00	30.00	 1428.8	     6.05
31	31	33.00	33.00	 1480.2	    -3.22
32	32	36.00	36.00	 1462.6	    -2.48
33	33	39.00	39.00	 1459.6	    -4.73
34	34	42.00	42.00	 1464.8	    -3.95
35	35	45.00	45.00	 1461.8	    -2.95
36	36	48.00	48.00	 1459.7	    -3.60
37	37	51.00	51.00	 1435.8	     3.46
38	38	54.00	54.00	 1443.3	     3.84
39	39	57.00	57.00	 1471.8	    -5.92
40	40	60.00	60.00	 1463.0	    -5.05
