1	0	0.0	0.0	0.0	3
1	1	-57.00	-57.00	 1651.6	 1206.7	  31.76
2	2	-54.00	-54.00	 1563.8	 1116.2	  31.70
3	3	-51.00	-51.00	 1545.1	 1066.0	  35.14
4	4	-48.00	-48.00	 1515.5	 1103.3	  39.01
5	5	-45.00	-45.00	 1507.6	 1177.7	  43.66
6	6	-42.00	-42.00	 1491.3	 1251.0	  46.35
7	7	-39.00	-39.00	 1479.7	 1300.4	  49.12
8	8	-36.00	-36.00	 1458.8	 1313.6	  53.07
9	9	-33.00	-33.00	 1466.9	 1343.8	  51.45
10	10	-30.00	-30.00	 1484.6	 1360.6	  51.23
11	11	-27.00	-27.00	 1485.9	 1374.9	  48.59
12	12	-24.00	-24.00	 1475.5	 1383.1	  48.81
13	13	-21.00	-21.00	 1473.1	 1407.7	  48.56
14	14	-18.00	-18.00	 1468.7	 1415.6	  47.83
15	15	-15.00	-15.00	 1468.2	 1419.5	  49.03
16	16	-12.00	-12.00	 1467.0	 1413.5	  50.71
17	17	-9.00	-9.00	 1473.9	 1424.4	  50.44
18	18	-6.00	-6.00	 1466.9	 1419.4	  50.21
19	19	-3.00	-3.00	 1469.7	 1434.7	  50.56
20	20	 0.00	 0.00	 1467.8	 1435.8	  50.36
21	21	 3.00	 3.00	 1466.3	 1443.2	  44.16
22	22	 6.00	 6.00	 1458.5	 1431.9	  46.59
23	23	 9.00	 9.00	 1463.2	 1438.6	  47.32
24	24	12.00	12.00	 1465.2	 1435.8	  52.28
25	25	15.00	15.00	 1457.3	 1429.6	  43.87
26	26	18.00	18.00	 1471.3	 1435.9	  46.10
27	27	21.00	21.00	 1471.1	 1441.2	  47.68
28	28	24.00	24.00	 1470.5	 1441.7	  52.96
29	29	27.00	27.00	 1465.4	 1446.9	  36.24
30	30	30.00	30.00	 1468.0	 1445.9	  43.73
31	31	33.00	33.00	 1479.4	 1453.8	  40.34
32	32	36.00	36.00	 1463.8	 1439.2	  51.13
33	33	39.00	39.00	 1448.2	 1432.8	  28.33
34	34	42.00	42.00	 1454.5	 1443.2	  30.40
35	35	45.00	45.00	 1456.9	 1441.3	  60.87
36	36	48.00	48.00	 1459.0	 1429.9	  67.36
37	37	51.00	51.00	 1465.3	 1432.9	  67.80
38	38	54.00	54.00	 1477.2	 1441.5	  58.05
39	39	57.00	57.00	 1467.6	 1423.2	  49.13
40	40	60.00	60.00	 1460.9	 1417.1	  48.40
