   0.0856836   0.9963228  -0.9963228   0.0856836     116.328    -191.695
   0.0853937   0.9963478  -0.9963478   0.0853937      92.075     -47.720
   0.0851399   0.9963695  -0.9963695   0.0851399      44.620      13.908
   0.0849144   0.9963888  -0.9963888   0.0849144      48.992      16.323
   0.0847117   0.9964060  -0.9964060   0.0847117      23.421      20.807
   0.0845278   0.9964216  -0.9964216   0.0845278      31.292      18.262
   0.0843590   0.9964359  -0.9964359   0.0843590      10.934      19.487
   0.0842029   0.9964491  -0.9964491   0.0842029      19.309      14.211
   0.0840573   0.9964615  -0.9964615   0.0840573      -0.674      15.086
   0.0839204   0.9964730  -0.9964730   0.0839204       8.662       9.080
   0.0837908   0.9964838  -0.9964838   0.0837908     -13.932      12.272
   0.0836673   0.9964943  -0.9964943   0.0836673      -2.058       6.873
   0.0835487   0.9965042  -0.9965042   0.0835487     -24.937      11.404
   0.0834345   0.9965137  -0.9965137   0.0834345     -11.863       9.482
   0.0833234   0.9965231  -0.9965231   0.0833234     -30.831      11.084
   0.0832148   0.9965321  -0.9965321   0.0832148     -22.074       9.009
   0.0831081   0.9965410  -0.9965410   0.0831081     -20.012      11.253
   0.0830028   0.9965498  -0.9965498   0.0830028     -21.755       8.130
   0.0828981   0.9965585  -0.9965585   0.0828981      -8.585       9.038
   0.0827934   0.9965672  -0.9965672   0.0827934     -18.874      10.706
   0.0826885   0.9965759  -0.9965759   0.0826885     -32.003       9.380
   0.0825823   0.9965847  -0.9965847   0.0825823     -14.607       7.977
   0.0824746   0.9965937  -0.9965937   0.0824746     -22.957       3.137
   0.0823646   0.9966028  -0.9966028   0.0823646      -3.416       4.427
   0.0822516   0.9966121  -0.9966121   0.0822516     -12.710       6.460
   0.0821346   0.9966217  -0.9966217   0.0821346       2.860       3.294
   0.0820131   0.9966317  -0.9966317   0.0820131      -3.135       3.974
   0.0818859   0.9966423  -0.9966423   0.0818859      -0.369       3.155
   0.0817520   0.9966532  -0.9966532   0.0817520     -14.403       5.284
   0.0816099   0.9966648  -0.9966648   0.0816099      -9.634      -4.482
   0.0814579   0.9966772  -0.9966772   0.0814579     -35.297       2.800
   0.0812943   0.9966907  -0.9966907   0.0812943     -33.543       0.151
   0.0811165   0.9967051  -0.9967051   0.0811165     -58.332       5.821
   0.0809212   0.9967210  -0.9967210   0.0809212     -50.833      -6.120
   0.0807050   0.9967386  -0.9967386   0.0807050     -74.977       6.015
   0.0804625   0.9967581  -0.9967581   0.0804625     -67.499      -8.866
   0.0801873   0.9967804  -0.9967804   0.0801873     -90.598       1.349
   0.0798700   0.9968057  -0.9968057   0.0798700     -85.114     -13.750
   0.0794984   0.9968355  -0.9968355   0.0794984    -113.595      -1.069
   0.0790546   0.9968708  -0.9968708   0.0790546    -102.694     -14.163
