-57.00 117
-54.00 108
-51.00 105
-48.00 96
-45.00 93
-42.00 84
-39.00 81
-36.00 72
-33.00 69
-30.00 60
-27.00 57
-24.00 48
-21.00 45
-18.00 36
-15.00 33
-12.00 24
-9.00 21
-6.00 12
-3.00 9
0.00 3
3.00 6
6.00 15
9.00 18
12.00 27
15.00 30
18.00 39
21.00 42
24.00 51
27.00 54
30.00 63
33.00 66
36.00 75
39.00 78
42.00 87
45.00 90
48.00 99
51.00 102
54.00 111
57.00 114
60.00 123
